t,theta
0.0,-5.289167e-05
0.0010000666711114075,-5.2571297e-05
0.002000133342222815,-5.173683e-05
0.0030002000133342224,-5.0373375e-05
0.00400026668444563,-4.8473477e-05
0.005000333355557038,-4.5984983e-05
0.006000400026668445,-4.3042004e-05
0.0070004666977798525,-3.954768e-05
0.00800053336889126,-3.552437e-05
0.009000600040002667,-3.0972064e-05
0.010000666711114076,-2.5823712e-05
0.011000733382225483,-2.0302832e-05
0.01200080005333689,-1.4081597e-05
0.013000866724448298,-7.4654818e-06
0.014000933395559705,-2.5331974e-07
0.015001000066671114,7.376075e-06
0.01600106673778252,1.5631318e-05
0.017001133408893927,2.4408102e-05
0.018001200080005334,3.363192e-05
0.019001266751116744,4.3421984e-05
0.02000133342222815,5.3726137e-05
0.021001400093339558,6.456673e-05
0.022001466764450965,7.583201e-05
0.023001533435562372,8.764863e-05
0.02400160010667378,0.00010000169
0.02500166677778519,0.000112876296
0.026001733448896596,0.00012619793
0.027001800120008003,0.00014007092
0.02800186679111941,0.00015451014
0.029001933462230817,0.0001693666
0.030002000133342227,0.00018476695
0.031002066804453634,0.00020059943
0.03200213347556504,0.00021702051
0.03300220014667645,0.00023388863
0.034002266817787855,0.00025130808
0.035002333488899265,0.00026916713
0.03600240016001067,0.00028742105
0.03700246683112208,0.00030630082
0.03800253350223349,0.00032564998
0.03900260017334489,0.00034548342
0.0400026668444563,0.0003658384
0.041002733515567706,0.00038662553
0.042002800186679116,0.00040785223
0.04300286685779053,0.00042965263
0.04400293352890193,0.0004518926
0.04500300020001334,0.00047462434
0.046003066871124744,0.0004977286
0.047003133542236154,0.00052140653
0.04800320021334756,0.0005455464
0.04900326688445897,0.00057019293
0.05000333355557038,0.00059521943
0.05100340022668178,0.00062070787
0.05200346689779319,0.00064671785
0.053003533568904596,0.00067320466
0.054003600240016006,0.0007001385
0.055003666911127416,0.0007275045
0.05600373358223882,0.00075533986
0.05700380025335023,0.0007835999
0.05800386692446163,0.000812307
0.059003933595573044,0.0008414909
0.060004000266684454,0.0008711964
0.06100406693779586,0.00090125203
0.06200413360890727,0.00093171
0.06300420028001867,0.0009627193
0.06400426695113008,0.000994131
0.06500433362224149,0.0010258853
0.0660044002933529,0.0010582507
0.0670044669644643,0.0010909736
0.06800453363557571,0.0011240169
0.06900460030668712,0.0011576489
0.07000466697779853,0.0011915863
0.07100473364890994,0.0012259856
0.07200480032002134,0.0012607798
0.07300486699113275,0.0012960434
0.07400493366224416,0.0013317093
0.07500500033335557,0.0013677552
0.07600506700446698,0.0014043301
0.07700513367557837,0.0014411509
0.07800520034668978,0.0014784113
0.0790052670178012,0.0015161037
0.0800053336889126,0.0015541911
0.08100540036002402,0.0015926585
0.08200546703113541,0.0016316399
0.08300553370224682,0.0016709119
0.08400560037335823,0.0017106682
0.08500566704446964,0.0017505959
0.08600573371558105,0.0017911047
0.08700580038669245,0.001831919
0.08800586705780386,0.0018730685
0.08900593372891527,0.001914598
0.09000600040002668,0.0019566268
0.09100606707113809,0.0019990206
0.09200613374224949,0.002041787
0.0930062004133609,0.0020847917
0.09400626708447231,0.0021282583
0.09500633375558372,0.0021720827
0.09600640042669512,0.0022161826
0.09700646709780653,0.002260685
0.09800653376891794,0.0023055598
0.09900660044002935,0.002350673
0.10000666711114076,0.0023961663
0.10100673378225215,0.0024419576
0.10200680045336356,0.0024879873
0.10300686712447497,0.0025342256
0.10400693379558638,0.0025808662
0.1050070004666978,0.0026276484
0.10600706713780919,0.002674669
0.1070071338089206,0.0027219579
0.10800720048003201,0.0027695
0.10900726715114342,0.0028172433
0.11000733382225483,0.002865158
0.11100740049336623,0.0029131472
0.11200746716447764,0.0029614717
0.11300753383558905,0.0030098855
0.11400760050670046,0.003058508
0.11500766717781187,0.0031071901
0.11600773384892327,0.0031560883
0.11700780052003468,0.0032050312
0.11800786719114609,0.0032541007
0.1190079338622575,0.0033032894
0.12000800053336891,0.0033525676
0.1210080672044803,0.0034018904
0.12200813387559171,0.0034513175
0.12300820054670313,0.0035007596
0.12400826721781454,0.0035502315
0.12500833388892593,0.0035998002
0.12600840056003734,0.0036493912
0.12700846723114875,0.0036989674
0.12800853390226016,0.0037485287
0.12900860057337157,0.0037981346
0.13000866724448298,0.0038477033
0.1310087339155944,0.0038972646
0.1320088005867058,0.003946759
0.1330088672578172,0.0039962083
0.1340089339289286,0.0040457025
0.13500900060004,0.0040949285
0.13600906727115142,0.0041442662
0.13700913394226283,0.00419344
0.13800920061337424,0.004242532
0.13900926728448565,0.004291557
0.14000933395559706,0.0043404773
0.14100940062670847,0.004389271
0.14200946729781988,0.004437983
0.14300953396893126,0.0044864044
0.14400960064004267,0.004534811
0.14500966731115408,0.0045829862
0.1460097339822655,0.00463105
0.1470098006533769,0.004678972
0.14800986732448831,0.0047267377
0.14900993399559972,0.004774146
0.15001000066671114,0.0048214197
0.15101006733782255,0.004868582
0.15201013400893396,0.004915476
0.15301020068004534,0.0049622133
0.15401026735115675,0.0050086156
0.15501033402226816,0.005054824
0.15601040069337957,0.005100742
0.15701046736449098,0.0051465333
0.1580105340356024,0.005191855
0.1590106007067138,0.0052370504
0.1600106673778252,0.0052819997
0.16101073404893662,0.0053265914
0.16201080072004803,0.0053708106
0.16301086739115941,0.0054148138
0.16401093406227082,0.005458571
0.16501100073338223,0.0055019334
0.16601106740449365,0.0055449456
0.16701113407560506,0.005587712
0.16801120074671647,0.005630076
0.16901126741782788,0.0056720674
0.1700113340889393,0.0057138056
0.1710114007600507,0.0057551116
0.1720114674311621,0.0057959706
0.1730115341022735,0.0058366135
0.1740116007733849,0.0058767796
0.1750116674444963,0.005916558
0.17601173411560772,0.005955994
0.17701180078671913,0.0059949905
0.17801186745783054,0.006033577
0.17901193412894195,0.0060717463
0.18001200080005336,0.006109521
0.18101206747116477,0.006146781
0.18201213414227618,0.0061838254
0.18301220081338757,0.0062201917
0.18401226748449898,0.0062562823
0.1850123341556104,0.0062918216
0.1860124008267218,0.0063269585
0.1870124674978332,0.006361641
0.18801253416894462,0.0063957274
0.18901260084005603,0.0064294934
0.19001266751116744,0.006462693
0.19101273418227885,0.0064954683
0.19201280085339023,0.0065276846
0.19301286752450164,0.0065595135
0.19401293419561305,0.006590694
0.19501300086672446,0.006621428
0.19601306753783587,0.0066516846
0.19701313420894728,0.0066814274
0.1980132008800587,0.0067105964
0.1990132675511701,0.0067392364
0.2000133342222815,0.00676737
0.20101340089339292,0.006794989
0.2020134675645043,0.006821975
0.20301353423561572,0.0068485215
0.20401360090672713,0.006874442
0.20501366757783854,0.0068998337
0.20601373424894995,0.0069247857
0.20701380092006136,0.0069490075
0.20801386759117277,0.0069726333
0.20901393426228418,0.0069958717
0.2100140009333956,0.0070183426
0.211014067604507,0.007040344
0.21201413427561838,0.0070618168
0.2130142009467298,0.007082641
0.2140142676178412,0.007102728
0.2150143342889526,0.007122323
0.21601440096006402,0.0071414486
0.21701446763117543,0.0071597397
0.21801453430228684,0.007177599
0.21901460097339825,0.007194765
0.22001466764450966,0.0072114244
0.22101473431562108,0.0072273165
0.22201480098673246,0.0072426647
0.22301486765784387,0.0072573274
0.22401493432895528,0.007271409
0.2250150010000667,0.0072848797
0.2260150676711781,0.007297665
0.2270151343422895,0.007309921
0.22801520101340092,0.007321425
0.22901526768451233,0.0073323697
0.23001533435562374,0.007342659
0.23101540102673515,0.0073522627
0.23201546769784653,0.007361278
0.23301553436895794,0.0073695257
0.23401560104006935,0.0073771626
0.23501566771118076,0.0073842034
0.23601573438229217,0.007390596
0.23701580105340359,0.007396266
0.238015867724515,0.007401265
0.2390159343956264,0.0074056834
0.24001600106673782,0.007409349
0.24101606773784923,0.007412389
0.2420161344089606,0.007414706
0.24301620108007202,0.0074163675
0.24401626775118343,0.007417403
0.24501633442229484,0.007417746
0.24601640109340625,0.0074174255
0.24701646776451766,0.007416405
0.24801653443562907,0.0074146315
0.24901660110674048,0.0074123293
0.25001666777785186,0.0074092895
0.2510167344489633,0.0074055344
0.2520168011200747,0.007401079
0.2530168677911861,0.0073959604
0.2540169344622975,0.007390186
0.2550170011334089,0.0073836893
0.2560170678045203,0.0073765367
0.25701713447563174,0.0073686168
0.25801720114674315,0.007360138
0.25901726781785456,0.007350847
0.26001733448896597,0.007340871
0.2610174011600774,0.007330276
0.2620174678311888,0.007318966
0.2630175345023002,0.007306941
0.2640176011734116,0.0072942525
0.265017667844523,0.0072808415
0.2660177345156344,0.00726673
0.2670178011867458,0.007252015
0.2680178678578572,0.0072364286
0.2690179345289686,0.0072202682
0.27001800120008,0.00720343
0.2710180678711914,0.0071858987
0.27201813454230284,0.0071676746
0.27301820121341425,0.007148668
0.27401826788452566,0.007129103
0.27501833455563707,0.0071087405
0.2760184012267485,0.007087618
0.2770184678978599,0.007066019
0.2780185345689713,0.007043585
0.2790186012400827,0.0070205033
0.2800186679111941,0.0069967285
0.28101873458230553,0.0069721863
0.28201880125341694,0.0069470555
0.28301886792452835,0.006921187
0.28401893459563976,0.006894678
0.28501900126675117,0.0068674386
0.2860190679378625,0.0068395957
0.28701913460897394,0.006811008
0.28801920128008535,0.0067817643
0.28901926795119676,0.0067518353
0.29001933462230817,0.006721154
0.2910194012934196,0.006689884
0.292019467964531,0.006657928
0.2930195346356424,0.006625131
0.2940196013067538,0.0065918565
0.2950196679778652,0.0065579116
0.29601973464897663,0.0065232515
0.29701980132008804,0.0064878464
0.29801986799119945,0.006451875
0.29901993466231086,0.006415203
0.30002000133342227,0.006377831
0.3010200680045337,0.0063397735
0.3020201346756451,0.006301187
0.3030202013467565,0.0062618405
0.3040202680178679,0.006221786
0.3050203346889793,0.006181255
0.3060204013600907,0.006139897
0.3070204680312021,0.0060979277
0.3080205347023135,0.0060554
0.3090206013734249,0.0060121343
0.3100206680445363,0.0059683025
0.31102073471564773,0.005923763
0.31202080138675914,0.0058785602
0.31302086805787055,0.0058327317
0.31402093472898196,0.005786352
0.31502100140009337,0.005739346
0.3160210680712048,0.0056916624
0.3170211347423162,0.005643286
0.3180212014134276,0.0055944175
0.319021268084539,0.005544767
0.3200213347556504,0.0054946095
0.32102140142676183,0.005443886
0.32202146809787324,0.0053923726
0.32302153476898465,0.005340457
0.32402160144009606,0.005287841
0.3250216681112074,0.0052345544
0.32602173478231883,0.0051806346
0.32702180145343024,0.0051263124
0.32802186812454165,0.005071223
0.32902193479565306,0.0050156415
0.33002200146676447,0.0049594417
0.3310220681378759,0.004902646
0.3320221348089873,0.004845269
0.3330222014800987,0.0047873408
0.3340222681512101,0.0047287196
0.3350223348223215,0.0046696216
0.33602240149343293,0.004609987
0.33702246816454434,0.004549809
0.33802253483565575,0.00448896
0.33902260150676716,0.0044276863
0.3400226681778786,0.0043656975
0.34102273484899,0.004303254
0.3420228015201014,0.0042402297
0.3430228681912128,0.0041766614
0.3440229348623242,0.004112661
0.34502300153343557,0.0040480047
0.346023068204547,0.0039828196
0.3470231348756584,0.0039171726
0.3480232015467698,0.003850907
0.3490232682178812,0.0037842616
0.3500233348889926,0.0037169456
0.35102340156010403,0.0036491752
0.35202346823121544,0.0035809502
0.35302353490232685,0.0035120845
0.35402360157343826,0.0034427494
0.3550236682445497,0.0033729747
0.3560237349156611,0.0033026338
0.3570238015867725,0.0032319352
0.3580238682578839,0.0031606853
0.3590239349289953,0.0030890256
0.3600240016001067,0.00301677
0.36102406827121813,0.0029440224
0.36202413494232955,0.002870962
0.36302420161344096,0.0027972981
0.36402426828455237,0.002723232
0.3650243349556637,0.0026487112
0.36602440162677513,0.0025737584
0.36702446829788654,0.002498351
0.36802453496899795,0.0024224296
0.36902460164010936,0.0023460835
0.3700246683112208,0.0022694096
0.3710247349823322,0.0021922141
0.3720248016534436,0.0021145642
0.373024868324555,0.002036564
0.3740249349956664,0.0019581392
0.3750250016667778,0.0018793121
0.37602506833788923,0.0018001646
0.37702513500900064,0.0017204359
0.37802520168011206,0.0016405061
0.37902526835122347,0.0015601665
0.3800253350223349,0.0014793128
0.3810254016934463,0.0013983548
0.3820254683645577,0.0013168678
0.3830255350356691,0.0012351424
0.38402560170678046,0.0011530071
0.38502566837789187,0.0010705814
0.3860257350490033,0.0009877011
0.3870258017201147,0.0009046495
0.3880258683912261,0.0008212328
0.3890259350623375,0.00073744357
0.3900260017334489,0.0006534606
0.39102606840456033,0.0005690828
0.39202613507567174,0.00048452616
0.39302620174678315,0.00039961934
0.39402626841789457,0.0003143996
0.395026335089006,0.00022907555
0.3960264017601174,0.00014334917
0.3970264684312288,5.736202e-05
0.3980265351023402,-2.8759241e-05
0.3990266017734516,-0.00011527538
0.400026668444563,-0.00020181388
0.40102673511567444,-0.00028873235
0.40202680178678585,-0.00037577003
0.40302686845789726,-0.00046316534
0.4040269351290086,-0.00055065006
0.40502700180012,-0.0006383583
0.40602706847123143,-0.0007262081
0.40702713514234284,-0.00081425905
0.40802720181345425,-0.00090259314
0.40902726848456566,-0.0009910241
0.4100273351556771,-0.0010795444
0.4110274018267885,-0.001168333
0.4120274684978999,-0.0012571961
0.4130275351690113,-0.0013462752
0.4140276018401227,-0.0014355034
0.4150276685112341,-0.0015247762
0.41602773518234554,-0.001614213
0.41702780185345695,-0.0017036945
0.41802786852456836,-0.00179331
0.41902793519567977,-0.001883179
0.4200280018667912,-0.0019729733
0.4210280685379026,-0.002062872
0.422028135209014,-0.0021528527
0.4230282018801254,-0.0022429898
0.42402826855123676,-0.0023331419
0.4250283352223482,-0.002423346
0.4260284018934596,-0.0025136843
0.427028468564571,-0.0026039928
0.4280285352356824,-0.0026943088
0.4290286019067938,-0.0027847812
0.4300286685779052,-0.002875261
0.43102873524901664,-0.0029656067
0.43202880192012805,-0.0030561313
0.43302886859123946,-0.0031465515
0.43402893526235087,-0.0032370612
0.4350290019334623,-0.0033275113
0.4360290686045737,-0.0034179688
0.4370291352756851,-0.0035084412
0.4380292019467965,-0.003598787
0.4390292686179079,-0.003689222
0.44002933528901933,-0.003779605
0.44102940196013074,-0.0038699508
0.44202946863124215,-0.0039601326
0.44302953530235356,-0.004050374
0.4440296019734649,-0.0041405335
0.4450296686445763,-0.0042306036
0.44602973531568774,-0.004320495
0.44702980198679915,-0.004410371
0.44802986865791056,-0.0045002773
0.44902993532902197,-0.0045900643
0.4500300020001334,-0.0046796203
0.4510300686712448,-0.0047691166
0.4520301353423562,-0.004858598
0.4530302020134676,-0.0049478337
0.454030268684579,-0.0050369874
0.45503033535569043,-0.005126059
0.45603040202680184,-0.0052149
0.45703046869791325,-0.005303666
0.45803053536902466,-0.005392194
0.45903060204013607,-0.0054806545
0.4600306687112475,-0.0055690035
0.4610307353823589,-0.005657017
0.4620308020534703,-0.005745016
0.46303086872458166,-0.005832702
0.46403093539569307,-0.0059203207
0.4650310020668045,-0.006007582
0.4660310687379159,-0.0060948133
0.4670311354090273,-0.006181814
0.4680312020801387,-0.006268516
0.4690312687512501,-0.006355077
0.47003133542236153,-0.006441362
0.47103140209347294,-0.0065274984
0.47203146876458435,-0.006613262
0.47303153543569576,-0.0066988543
0.47403160210680717,-0.0067842305
0.4750316687779186,-0.006869331
0.47603173544903,-0.006954208
0.4770318021201414,-0.0070387423
0.4780318687912528,-0.00712315
0.4790319354623642,-0.007207155
0.48003200213347563,-0.007290937
0.48103206880458704,-0.0073743835
0.48203213547569845,-0.007457614
0.4830322021468098,-0.007540405
0.4840322688179212,-0.0076230913
0.48503233548903263,-0.0077053457
0.48603240216014404,-0.007787317
0.48703246883125545,-0.007868998
0.48803253550236686,-0.007950276
0.48903260217347827,-0.008031301
0.4900326688445897,-0.008111924
0.4910327355157011,-0.008192331
0.4920328021868125,-0.00827229
0.4930328688579239,-0.008351952
0.4940329355290353,-0.008431219
0.49503300220014673,-0.00851018
0.49603306887125814,-0.008588627
0.49703313554236955,-0.008666851
0.49803320221348096,-0.008744605
0.4990332688845924,-0.008821994
0.5000333355557037,-0.008899108
0.5010334022268151,-0.008975722
0.5020334688979265,-0.0090519935
0.503033535569038,-0.009127848
0.5040336022401494,-0.009203307
0.5050336689112608,-0.00927835
0.5060337355823722,-0.0093529895
0.5070338022534836,-0.00942722
0.508033868924595,-0.0095009655
0.5090339355957064,-0.009574302
0.5100340022668178,-0.009647258
0.5110340689379292,-0.009719759
0.5120341356090407,-0.009791732
0.5130342022801521,-0.009863369
0.5140342689512635,-0.009934545
0.5150343356223749,-0.010005191
0.5160344022934863,-0.01007542
0.5170344689645977,-0.010145158
0.5180345356357091,-0.010214545
0.5190346023068205,-0.010283306
0.5200346689779319,-0.0103516355
0.5210347356490433,-0.010419428
0.5220348023201548,-0.010486938
0.5230348689912662,-0.010553822
0.5240349356623776,-0.010620147
0.525035002333489,-0.010686092
0.5260350690046004,-0.010751456
0.5270351356757118,-0.010816373
0.5280352023468232,-0.0108807385
0.5290352690179346,-0.010944568
0.530035335689046,-0.01100795
0.5310354023601574,-0.01107078
0.5320354690312687,-0.01113306
0.5330355357023802,-0.01119487
0.5340356023734916,-0.011256039
0.535035669044603,-0.0113167465
0.5360357357157144,-0.011376895
0.5370358023868258,-0.011436507
0.5380358690579372,-0.01149559
0.5390359357290486,-0.011554047
0.54003600240016,-0.011612102
0.5410360690712714,-0.011669487
0.5420361357423829,-0.0117262155
0.5430362024134943,-0.011782534
0.5440362690846057,-0.011838235
0.5450363357557171,-0.011893414
0.5460364024268285,-0.011947937
0.5470364690979399,-0.012001932
0.5480365357690513,-0.012055337
0.5490366024401627,-0.01210814
0.5500366691112741,-0.012160361
0.5510367357823855,-0.012212023
0.552036802453497,-0.012263007
0.5530368691246084,-0.012313485
0.5540369357957198,-0.012363277
0.5550370024668312,-0.012412608
0.5560370691379426,-0.012461208
0.557037135809054,-0.012509197
0.5580372024801654,-0.012556702
0.5590372691512768,-0.012603447
0.5600373358223882,-0.012649566
0.5610374024934996,-0.012695201
0.5620374691646111,-0.012740165
0.5630375358357225,-0.012784466
0.5640376025068339,-0.012828216
0.5650376691779453,-0.012871243
0.5660377358490567,-0.012913637
0.5670378025201681,-0.012955457
0.5680378691912795,-0.012996599
0.5690379358623909,-0.013037115
0.5700380025335023,-0.013077013
0.5710380692046138,-0.013116166
0.572038135875725,-0.013154767
0.5730382025468365,-0.013192721
0.5740382692179479,-0.013230041
0.5750383358890593,-0.013266668
0.5760384025601707,-0.013302654
0.5770384692312821,-0.013337985
0.5780385359023935,-0.013372712
0.5790386025735049,-0.013406768
0.5800386692446163,-0.013440028
0.5810387359157277,-0.013472758
0.5820388025868392,-0.013504736
0.5830388692579506,-0.013536051
0.584038935929062,-0.01356674
0.5850390026001734,-0.0135967955
0.5860390692712848,-0.013626121
0.5870391359423962,-0.013654754
0.5880392026135076,-0.0136827305
0.589039269284619,-0.013710059
0.5900393359557304,-0.013736621
0.5910394026268418,-0.013762623
0.5920394692979533,-0.013787858
0.5930395359690647,-0.01381243
0.5940396026401761,-0.013836391
0.5950396693112875,-0.01385957
0.5960397359823989,-0.013882108
0.5970398026535103,-0.013903938
0.5980398693246217,-0.013925068
0.5990399359957331,-0.01394552
0.6000400026668445,-0.0139653385
0.601040069337956,-0.01398436
0.6020401360090674,-0.014002748
0.6030402026801788,-0.01402051
0.6040402693512902,-0.014037475
0.6050403360224016,-0.014053777
0.606040402693513,-0.0140694305
0.6070404693646244,-0.01408428
0.6080405360357358,-0.0140985325
0.6090406027068472,-0.014111958
0.6100406693779586,-0.014124796
0.6110407360490699,-0.014136948
0.6120408027201814,-0.014148317
0.6130408693912928,-0.014159024
0.6140409360624042,-0.014169037
